#Wave		#Intensity
1799.006836	-3.269566
1798.043945	6.183585
1797.081055	231.459732
1796.117188	179.006958
1795.154297	196.792938
1794.190430	224.993912
1793.226563	235.125793
1792.262695	-581.852722
1791.297852	22.276897
1790.333984	120.860352
1789.369141	-26.760529
1788.404297	-148.320145
1787.439453	-150.582138
1786.473633	-129.502853
1785.508789	-129.007034
1784.542969	236.561111
1783.577148	312.154388
1782.611328	141.943039
1781.644531	72.729332
1780.678711	228.740067
1779.711914	-272.242615
1778.745117	413.975983
1777.778320	143.402313
1776.810547	77.151917
1775.843750	235.896118
1774.875977	-217.776993
1773.908203	21.123898
1772.940430	-99.011726
1771.971680	67.541771
1771.003906	-426.783264
1770.035156	83.207832
1769.066406	120.779610
1768.097656	-471.174316
1767.128906	-337.932190
1766.159180	-3.564472
1765.189453	-14.814644
1764.219727	270.492310
1763.250000	55.675987
1762.280273	-91.990868
1761.309570	136.589874
1760.338867	251.787750
1759.369141	-21.863935
1758.397461	49.599030
1757.426758	-102.843292
1756.455078	-291.262817
1755.484375	578.227722
1754.512695	27.060656
1753.541016	-22.191650
1752.568359	-138.301163
1751.596680	13.177439
1750.624023	2.622602
1749.651367	-195.514633
1748.678711	-20.882950
1747.706055	-221.404419
1746.732422	81.661362
1745.758789	-69.953537
1744.785156	271.582794
1743.811523	-121.237572
1742.837891	-13.309224
1741.863281	261.386078
1740.889648	-259.328857
1739.915039	-164.163467
1738.940430	-435.749298
1737.964844	315.920593
1736.990234	139.309082
1736.014648	-160.269104
1735.039063	-108.578568
1734.063477	335.169861
1733.087891	133.234131
1732.111328	-165.944656
1731.135742	244.415909
1730.159180	65.768311
1729.181641	-30.898735
1728.205078	-86.471207
1727.228516	223.921921
1726.250977	-286.972992
1725.273438	20.832769
1724.295898	134.230087
1723.317383	204.121857
1722.339844	376.339996
1721.361328	443.713562
1720.382813	33.316803
1719.404297	-221.029572
1718.425781	-130.418976
1717.446289	225.727844
1716.467773	-28.328423
1715.488281	240.988403
1714.508789	-171.126694
1713.528320	-29.398794
1712.548828	148.100143
1711.568359	4.177486
1710.587891	-328.323669
1709.607422	323.456543
1708.625977	240.891144
1707.645508	245.126144
1706.664063	178.024460
1705.682617	-194.672729
1704.701172	-129.093842
1703.719727	28.199121
1702.737305	167.618851
1701.754883	-39.121151
1700.773438	-29.342905
1699.790039	224.648254
1698.807617	-60.634258
1697.824219	356.170258
1696.841797	-142.477707
1695.858398	124.318069
1694.875000	406.333008
1693.890625	68.179863
1692.907227	-231.599548
1691.922852	-13.030113
1690.938477	134.417114
1689.954102	152.375488
1688.968750	-304.393250
1687.984375	122.448608
1686.999023	0.998258
1686.013672	-171.071304
1685.028320	-102.009499
1684.041992	355.086517
1683.056641	-17.036375
1682.070313	247.345032
1681.083984	-190.397537
1680.097656	236.256042
1679.110352	168.709091
1678.124023	-2.534677
1677.136719	223.944275
1676.149414	308.614807
1675.162109	-82.604538
1674.173828	-53.473934
1673.186523	-107.729019
1672.198242	242.886703
1671.209961	115.357239
1670.221680	281.339355
1669.232422	181.792206
1668.243164	550.058777
1667.254883	26.102755
1666.265625	308.513977
1665.275391	-106.468414
1664.286133	-116.980438
1663.295898	-129.970673
1662.305664	54.086834
1661.315430	-87.498795
1660.325195	217.808151
1659.334961	624.027710
1658.343750	144.569443
1657.352539	381.775085
1656.361328	26.324867
1655.370117	135.055252
1654.377930	243.794174
1653.385742	19.886827
1652.393555	259.833740
1651.401367	409.084625
1650.409180	157.870453
1649.416992	-22.628592
1648.423828	78.998161
1647.430664	-194.400925
1646.437500	415.830902
1645.443359	447.112427
1644.450195	-22.130684
1643.456055	-239.588516
1642.461914	-67.057838
1641.467773	20.020388
1640.473633	217.779434
1639.478516	-19.286943
1638.483398	-168.206512
1637.488281	223.189133
1636.493164	44.353539
1635.498047	-355.294891
1634.501953	367.601501
1633.505859	-11.700557
1632.509766	-553.872559
1631.513672	-164.781235
1630.517578	113.878448
1629.520508	33.812424
1628.523438	96.831451
1627.526367	82.209343
1626.529297	-77.686340
1625.531250	143.503159
1624.534180	309.627991
1623.536133	230.249115
1622.538086	135.985107
1621.540039	41.871445
1620.541016	213.259705
1619.541992	-70.884338
1618.542969	143.232620
1617.543945	-7.935993
1616.544922	-166.436722
1615.545898	40.418240
1614.545898	-207.858627
1613.545898	186.623398
1612.545898	141.126328
1611.544922	78.225525
1610.544922	-9.470942
1609.543945	257.679688
1608.542969	102.739281
1607.541992	215.176880
1606.541016	45.566940
1605.539063	140.696548
1604.537109	-148.419846
1603.535156	21.807844
1602.533203	271.911072
1601.531250	272.628357
1600.528320	-335.018188
1599.525391	329.188293
1598.522461	-444.982483
1597.519531	254.114212
1596.515625	145.735413
1595.512695	316.563080
1594.508789	146.197128
1593.504883	-138.517563
1592.500000	-94.409348
1591.496094	64.339294
1590.491211	-117.819069
1589.486328	-65.903389
1588.481445	486.117706
1587.476563	-155.751755
1586.470703	281.895050
1585.465820	-103.352654
1584.459961	-120.497665
1583.454102	96.084702
1582.447266	-253.807602
1581.441406	-273.016144
1580.434570	63.019833
1579.427734	-122.388046
1578.420898	62.299347
1577.413086	-60.767796
1576.406250	377.208130
1575.398438	63.343971
1574.390625	-312.279877
1573.381836	247.311569
1572.374023	221.672516
1571.365234	-19.536051
1570.356445	-111.808578
1569.347656	363.550262
1568.338867	105.501434
1567.330078	-164.697250
1566.320313	149.762146
1565.310547	-60.693642
1564.300781	152.380661
1563.290039	-117.163597
1562.280273	167.857727
1561.269531	-512.004883
1560.258789	-125.384132
1559.248047	-104.795601
1558.237305	-7.434673
1557.225586	-223.960922
1556.213867	-106.620842
1555.202148	33.042530
1554.190430	-19.920082
1553.177734	-260.480194
1552.166016	-53.804237
1551.153320	-158.210037
1550.140625	-445.109039
1549.127930	504.701813
1548.114258	67.493820
1547.100586	-144.906586
1546.086914	-78.382355
1545.073242	74.558609
1544.059570	50.052906
1543.044922	-255.353989
1542.031250	178.867828
1541.016602	61.083012
1540.001953	-487.633087
1538.986328	52.605412
1537.971680	201.256943
1536.956055	123.441185
1535.940430	-138.821793
1534.923828	61.784126
1533.908203	-116.443916
1532.891602	-535.576538
1531.875977	-280.481293
1530.858398	70.475357
1529.841797	-537.352173
1528.825195	-149.327026
1527.807617	-252.850937
1526.790039	-356.205902
1525.772461	-149.872604
1524.753906	-292.271851
1523.736328	253.078201
1522.717773	194.383057
1521.699219	37.660793
1520.680664	-408.436462
1519.662109	254.747345
1518.642578	-289.106293
1517.623047	-45.362644
1516.603516	61.103035
1515.583984	444.669434
1514.563477	257.096710
1513.543945	131.020172
1512.523438	171.698853
1511.502930	-162.288101
1510.481445	275.394287
1509.460938	140.106689
1508.439453	-21.957129
1507.417969	499.027496
1506.396484	283.380615
1505.374023	-198.749649
1504.352539	319.890564
1503.330078	-394.120880
1502.307617	-97.924797
1501.285156	-2.173849
1500.261719	276.940887
1499.239258	-240.492096
1498.215820	-95.561615
1497.192383	27.458010
1496.167969	235.993408
1495.144531	217.534271
1494.120117	-303.667236
1493.095703	256.621796
1492.071289	-32.325535
1491.046875	-116.107170
1490.021484	568.540222
1488.996094	226.403748
1487.970703	420.904907
1486.945313	276.629333
1485.918945	442.012756
1484.893555	-38.203835
1483.867188	124.988174
1482.840820	198.121140
1481.813477	171.486771
1480.787109	600.270325
1479.759766	79.696259
1478.732422	167.843323
1477.705078	129.558807
1476.677734	368.721283
1475.649414	826.775513
1474.621094	579.600586
1473.592773	485.805359
1472.564453	693.565369
1471.536133	33.813808
1470.506836	377.855499
1469.477539	257.912506
1468.448242	466.003998
1467.418945	487.164764
1466.388672	-8.670979
1465.358398	78.323776
1464.328125	226.066635
1463.297852	652.869751
1462.267578	99.666260
1461.236328	182.164505
1460.205078	570.253357
1459.173828	27.428488
1458.142578	27.838003
1457.111328	343.376038
1456.079102	465.063934
1455.046875	46.676704
1454.014648	79.006912
1452.981445	53.310658
1451.949219	296.453613
1450.916016	43.456264
1449.882813	134.268784
1448.849609	-186.101410
1447.816406	642.653870
1446.782227	-115.181221
1445.748047	-69.910934
1444.713867	309.026855
1443.679688	158.662949
1442.644531	344.309326
1441.609375	218.356598
1440.574219	411.382446
1439.539063	17.659954
1438.503906	189.137894
1437.467773	256.851440
1436.432617	194.346313
1435.396484	467.334015
1434.359375	-248.732376
1433.323242	219.805420
1432.286133	292.792389
1431.249023	199.512527
1430.211914	217.254456
1429.174805	-5.884578
1428.136719	431.307373
1427.099609	324.053680
1426.061523	-38.346184
1425.022461	211.076401
1423.984375	388.301971
1422.945313	-353.869385
1421.906250	-277.475006
1420.867188	419.703400
1419.828125	399.907623
1418.789063	-151.253418
1417.749023	262.050537
1416.708984	-142.027054
1415.668945	117.497780
1414.627930	21.373541
1413.587891	518.805115
1412.546875	398.825256
1411.505859	-76.413101
1410.464844	-404.898682
1409.422852	102.187889
1408.380859	-70.016403
1407.339844	314.636749
1406.296875	245.802231
1405.254883	263.453186
1404.212891	-275.129913
1403.169922	133.595581
1402.126953	38.883232
1401.083008	-77.274925
1400.040039	163.733429
1398.996094	-304.345337
1397.952148	87.675514
1396.908203	264.127563
1395.864258	-78.903725
1394.820313	-136.864090
1393.775391	-213.866272
1392.730469	611.256409
1391.685547	-3.890964
1390.639648	-291.057617
1389.593750	230.172867
1388.548828	10.216522
1387.502930	24.657795
1386.456055	-6.230051
1385.410156	-247.239807
1384.363281	-139.333328
1383.316406	-146.004944
1382.269531	88.565201
1381.221680	-73.148567
1380.174805	171.040482
1379.126953	-207.582474
1378.079102	401.710419
1377.031250	390.696045
1375.982422	-240.264114
1374.933594	-72.161224
1373.884766	148.402679
1372.835938	-100.533836
1371.787109	-146.744659
1370.737305	26.304037
1369.687500	-81.680176
1368.637695	48.599091
1367.587891	445.551514
1366.538086	175.950058
1365.487305	199.246948
1364.436523	462.930573
1363.385742	141.398865
1362.333984	84.065277
1361.283203	136.234360
1360.231445	309.698395
1359.179688	-218.003891
1358.127930	79.201218
1357.075195	252.805695
1356.022461	191.254242
1354.969727	79.936996
1353.916992	-202.209045
1352.864258	171.046082
1351.810547	223.800217
1350.756836	-103.057014
1349.703125	89.864479
1348.649414	-103.842049
1347.595703	-249.966171
1346.541016	-14.226036
1345.486328	475.134705
1344.431641	-317.810211
1343.375977	-22.743610
1342.321289	23.534571
1341.265625	-200.153137
1340.209961	-212.917953
1339.154297	98.755211
1338.097656	-98.558205
1337.041016	139.737350
1335.985352	-52.614429
1334.927734	-225.909225
1333.871094	-278.430511
1332.813477	-248.100677
1331.756836	233.849121
1330.698242	63.280289
1329.640625	183.533463
1328.583008	36.821217
1327.524414	-8.194394
1326.465820	-305.824799
1325.407227	-8.234614
1324.347656	286.929840
1323.289063	-192.110641
1322.229492	-130.511398
1321.169922	-318.955322
1320.110352	-7.189057
1319.049805	-565.710144
1317.989258	-357.643127
1316.928711	43.702877
1315.868164	-427.086761
1314.807617	113.260826
1313.746094	269.432007
1312.684570	32.255039
1311.623047	214.409058
1310.561523	601.381775
1309.499023	390.351959
1308.436523	54.737499
1307.374023	-170.091125
1306.311523	193.353821
1305.249023	72.196732
1304.185547	111.042488
1303.122070	100.558609
1302.058594	-198.978134
1300.995117	65.673851
1299.930664	196.342316
1298.866211	343.456238
1297.801758	476.472076
1296.737305	-24.493574
1295.672852	111.000076
1294.607422	-75.070511
1293.541992	344.418671
1292.476563	339.135010
1291.410156	279.949615
1290.344727	-25.397184
1289.278320	175.880524
1288.211914	91.133018
1287.145508	147.090164
1286.078125	-460.064148
1285.010742	-207.136078
1283.943359	340.865967
1282.875977	57.355415
1281.808594	-317.301178
1280.740234	354.576385
1279.671875	443.482544
1278.603516	-164.876358
1277.535156	20.104525
1276.465820	429.574341
1275.397461	153.779770
1274.328125	287.269806
1273.257813	233.743103
1272.188477	385.938354
1271.118164	91.846100
1270.047852	304.815826
1268.977539	15.608546
1267.907227	371.020508
1266.835938	292.099609
1265.764648	-251.222870
1264.693359	533.497742
1263.622070	-14.239273
1262.550781	187.038086
1261.478516	108.409172
1260.406250	482.180054
1259.333984	200.787537
1258.260742	746.912659
1257.188477	544.870972
1256.115234	156.564377
1255.041992	-343.349762
1253.967773	279.399597
1252.894531	406.018341
1251.820313	432.514069
1250.746094	65.723747
1249.671875	252.881012
1248.596680	-229.985184
1247.522461	292.123749
1246.447266	35.059380
1245.372070	177.994476
1244.295898	-48.682564
1243.220703	184.889893
1242.144531	72.200378
1241.068359	180.253525
1239.991211	107.129242
1238.915039	66.567856
1237.837891	114.253380
1236.760742	157.295807
1235.683594	19.338940
1234.605469	113.454948
1233.528320	634.348755
1232.450195	572.954590
1231.372070	207.870651
1230.292969	392.329285
1229.214844	259.222778
1228.135742	70.567505
1227.056641	-83.245476
1225.977539	-144.338058
1224.897461	158.162888
1223.817383	-21.015751
1222.737305	-28.820061
1221.657227	257.296021
1220.577148	-192.469040
1219.496094	-82.238228
1218.415039	367.930145
1217.333984	43.296989
1216.252930	407.728699
1215.170898	432.239044
1214.088867	-16.984232
1213.006836	162.401794
1211.924805	85.322083
1210.841797	183.778717
1209.759766	102.104904
1208.676758	272.082977
1207.593750	275.810760
1206.509766	18.786461
1205.425781	373.217224
1204.342773	533.755493
1203.257813	239.921036
1202.173828	174.458023
1201.088867	51.387135
1200.004883	-110.817886
1198.919922	155.597961
1197.833984	-190.881821
1196.749023	-67.373299
1195.663086	371.530823
1194.577148	-64.595100
1193.491211	63.369144
1192.404297	16.366976
1191.318359	-131.862167
1190.231445	619.362366
1189.144531	-21.123312
1188.056641	-302.668823
1186.969727	360.711395
1185.881836	72.272209
1184.793945	-20.751905
1183.706055	-95.373535
1182.617188	-87.305649
1181.528320	24.076958
1180.439453	-107.984444
1179.350586	-196.400909
1178.261719	291.240723
1177.171875	-47.382011
1176.082031	485.844452
1174.992188	294.052032
1173.901367	-191.206833
1172.811523	-146.696121
1171.720703	-173.298233
1170.629883	13.202003
1169.538086	-68.478951
1168.447266	-248.659622
1167.355469	132.300812
1166.263672	-528.765198
1165.171875	-136.534302
1164.079102	-488.360565
1162.986328	-71.212250
1161.894531	-52.354317
1160.800781	73.949753
1159.708008	90.395126
1158.614258	-524.260681
1157.520508	-190.048233
1156.426758	-203.406006
1155.333008	-84.280281
1154.238281	-269.087891
1153.143555	-243.742081
1152.048828	286.205353
1150.954102	-122.449638
1149.858398	288.446228
1148.763672	133.169342
1147.667969	-101.957130
1146.571289	62.151653
1145.475586	55.096519
1144.378906	-168.639450
1143.282227	88.679222
1142.185547	-274.112488
1141.088867	-402.105438
1139.991211	-117.740425
1138.893555	-339.227142
1137.795898	188.550659
1136.698242	-19.372900
1135.599609	-291.016968
1134.500977	-5.020705
1133.402344	182.946930
1132.303711	-72.845505
1131.204102	-208.058044
1130.104492	-215.942932
1129.004883	-244.352707
1127.905273	168.141342
1126.805664	-80.918846
1125.705078	-191.361542
1124.604492	-51.954330
1123.503906	91.860397
1122.402344	171.949478
1121.301758	163.400391
1120.200195	41.283688
1119.098633	-416.706970
1117.996094	-457.142517
1116.894531	207.791626
1115.791992	325.817810
1114.689453	-86.838799
1113.585938	185.168579
1112.483398	-485.821503
1111.379883	-16.888048
1110.276367	-338.864166
1109.172852	0.561600
1108.068359	212.938812
1106.963867	-222.362366
1105.859375	-12.475727
1104.754883	-273.484314
1103.650391	187.278839
1102.544922	-35.402763
1101.439453	-70.373375
1100.333984	-141.610565
1099.227539	223.383789
1098.122070	-560.038086
1097.015625	-102.664192
1095.909180	-153.912598
1094.801758	-94.574593
1093.695313	-234.082428
1092.587891	116.294777
1091.480469	319.693939
1090.373047	157.285934
1089.264648	243.032974
1088.156250	125.599586
1087.047852	-115.944901
1085.939453	68.687584
1084.830078	72.759651
1083.721680	-392.108551
1082.612305	-138.027618
1081.501953	-179.330841
1080.392578	-238.745163
1079.282227	-192.416916
1078.171875	148.741180
1077.061523	34.896095
1075.951172	80.773438
1074.839844	218.759933
1073.728516	259.826080
1072.617188	-207.587708
1071.505859	172.869156
1070.393555	-305.838837
1069.281250	310.235748
1068.168945	200.013840
1067.056641	-4.657879
1065.943359	226.419006
1064.830078	154.059586
1063.716797	151.208191
1062.603516	-323.229858
1061.489258	519.931702
1060.375977	-324.928711
1059.260742	-164.465546
1058.146484	20.477642
1057.032227	-54.940300
1055.916992	75.794479
1054.801758	13.548841
1053.686523	-136.221100
1052.570313	-23.919827
1051.455078	229.340759
1050.338867	244.916580
1049.221680	271.521210
1048.105469	78.570801
1046.988281	147.428391
1045.871094	-153.147537
1044.753906	114.560837
1043.636719	279.107330
1042.518555	101.227020
1041.400391	70.846855
1040.282227	136.454224
1039.164063	-312.197845
1038.044922	519.609619
1036.925781	365.647888
1035.806641	274.130829
1034.687500	55.202190
1033.567383	-145.950836
1032.448242	224.294617
1031.328125	183.555923
1030.207031	216.284927
1029.086914	248.851440
1027.965820	116.172791
1026.844727	451.665955
1025.723633	365.486359
1024.601563	18.367018
1023.479492	299.658966
1022.357422	119.459015
1021.235352	1.535910
1020.113281	351.177917
1018.990234	257.383026
1017.867188	69.956085
1016.744141	47.134579
1015.620117	489.193451
1014.497070	419.217072
1013.373047	-418.298706
1012.248047	238.734741
1011.124023	146.066788
1009.999023	640.071289
1008.874023	486.968292
1007.749023	347.081329
1006.624023	76.007332
1005.498047	255.699631
1004.372070	368.511749
1003.246094	59.286743
1002.120117	222.773895
1000.993164	650.054871
999.866211	296.007324
998.739258	-122.404686
997.612305	-4.150508
996.484375	18.503263
995.356445	437.751251
994.228516	315.858459
993.100586	333.417969
991.971680	419.432159
990.843750	540.671570
989.714844	114.684418
988.584961	169.082886
987.456055	411.427551
986.326172	261.750092
985.196289	744.715332
984.065430	107.957352
982.935547	154.670944
981.804688	227.671600
980.673828	629.828003
979.542969	37.026268
978.411133	279.524811
977.280273	546.039490
976.148438	-197.197769
975.015625	-15.066850
973.883789	-95.928970
972.750977	491.845245
971.618164	331.020386
970.485352	333.334259
969.351563	827.344666
968.218750	308.633606
967.084961	153.738937
965.950195	-49.824627
964.816406	138.842255
963.681641	307.354645
962.546875	383.052734
961.412109	128.100174
960.277344	16.187981
959.141602	414.892090
958.005859	232.069046
956.870117	183.888855
955.733398	135.708664
954.597656	87.528473
953.460938	137.180191
952.323242	-189.457977
951.186523	171.982361
950.048828	106.604485
948.911133	419.016357
947.773438	140.057541
946.635742	142.165253
945.497070	106.686897
944.358398	837.301514
943.219727	-10.979399
942.081055	207.527466
940.941406	-30.721733
939.801758	272.780884
938.662109	200.871078
937.521484	-37.921322
936.381836	113.444756
935.241211	339.017365
934.100586	29.547531
932.958984	2.599596
931.818359	275.571533
930.676758	-95.716492
929.535156	-64.180725
928.392578	-19.776999
927.250977	-391.441803
926.108398	267.452209
924.965820	278.259094
923.822266	194.748932
922.678711	598.709717
921.536133	-14.358742
920.391602	321.227753
919.248047	-55.980782
918.103516	324.898438
916.959961	340.604065
915.814453	227.154251
914.669922	124.472282
913.524414	-11.173773
912.378906	49.447258
911.233398	-409.543488
910.087891	-78.790482
908.941406	247.196808
907.794922	79.958900
906.648438	-205.175980
905.501953	82.886009
904.354492	211.462860
903.207031	355.006012
902.059570	371.910156
900.912109	0.894138
899.763672	267.787048
898.615234	281.794952
897.466797	-594.663940
896.318359	439.672211
895.168945	96.100601
894.019531	-347.613342
892.870117	-175.918640
891.720703	-80.623596
890.570313	260.005737
889.419922	93.868401
888.269531	-42.008015
887.119141	-332.298981
885.967773	-375.126648
884.816406	-70.727989
883.665039	-12.012815
882.512695	-10.021743
881.361328	358.522614
880.208984	253.659653
879.056641	298.286163
877.903320	184.313965
876.750977	-79.411636
875.597656	209.495010
874.443359	628.057251
873.290039	123.160469
872.135742	-331.955170
870.981445	-226.125977
869.827148	-14.456929
868.672852	-28.271763
867.517578	55.062588
866.362305	-104.242538
865.207031	-343.760864
864.051758	-42.609005
862.895508	292.751678
861.739258	9.345785
860.583008	-375.767548
859.425781	174.871780
858.268555	98.402153
857.111328	-226.703171
855.954102	-104.783417
854.796875	42.775307
853.638672	492.268250
852.480469	-593.376221
851.322266	235.440186
850.163086	2.094309
849.004883	601.334351
847.845703	-206.110306
846.685547	252.237137
845.526367	93.664940
844.366211	-194.418732
843.206055	13.021336
842.045898	-159.018005
840.884766	-6.000996
839.723633	-376.552032
838.562500	-516.791443
837.401367	137.105820
836.240234	-177.925903
835.078125	-99.335899
833.916016	-83.368835
832.752930	162.455353
831.590820	-140.301590
830.427734	31.921097
829.264648	-79.854973
828.101563	-428.160156
826.937500	390.008331
825.773438	213.125748
824.609375	289.513306
823.445313	-121.706947
822.280273	-423.528900
821.115234	-180.316467
819.950195	-38.256222
818.785156	101.394997
817.619141	-134.587662
816.453125	-117.645668
815.287109	-411.758453
814.121094	-45.800068
812.954102	-44.531021
811.787109	-266.271057
810.620117	-252.499603
809.453125	-264.625763
808.285156	339.632324
807.117188	622.346191
805.949219	102.208305
804.780273	-347.339661
803.612305	43.865047
802.443359	332.005341
801.273438	18.929600
800.104492	-114.577522
798.934570	-367.951050
797.764648	-219.665176
796.594727	75.785118
795.423828	148.735077
794.253906	-579.302734
793.083008	471.247192
791.911133	50.377731
790.740234	466.141388
789.568359	-93.598099
788.396484	-164.763046
787.224609	39.054016
786.051758	193.511581
784.878906	34.347904
783.706055	-110.002205
782.533203	107.798454
781.359375	-21.982691
780.185547	318.854034
779.011719	316.516968
777.837891	96.839386
776.663086	460.295349
775.488281	255.202194
774.313477	45.772194
773.138672	119.201942
771.962891	-124.511482
770.787109	463.121643
769.611328	623.040100
768.434570	142.928238
767.258789	-20.469269
766.082031	-33.152477
764.904297	234.332779
763.727539	629.013123
762.549805	350.286316
761.372070	389.932068
760.194336	210.826706
759.015625	-104.205582
757.836914	204.427673
756.658203	41.946606
755.479492	252.579193
754.299805	-56.460155
753.121094	240.724152
751.941406	268.465729
750.760742	-189.156174
749.581055	-4.870384
748.400391	215.148361
747.219727	149.110626
746.038086	-302.332245
744.856445	-182.313293
743.675781	-183.035477
742.493164	-664.173096
741.311523	-91.955254
740.128906	-201.018677
738.946289	-67.050659
737.763672	248.497131
736.581055	-29.991016
735.397461	-669.794128
734.213867	342.283661
733.029297	-521.466431
731.845703	236.557205
730.661133	-175.314575
729.476563	-99.627785
728.291992	11.775284
727.106445	4.841734
725.920898	42.088253
724.735352	51.797581
723.549805	299.604034
722.363281	214.141937
721.176758	-10.462365
719.990234	474.894196
718.803711	-162.700974
717.616211	-551.699646
716.428711	114.165352
715.241211	-85.479485
714.052734	144.124832
712.865234	182.121063
711.676758	346.166199
710.487305	-83.074303
709.298828	-85.332420
708.109375	-100.342026
706.919922	-128.054260
705.730469	140.446426
704.540039	435.996796
703.349609	519.200500
702.159180	184.410614
700.968750	206.581772
699.777344	190.831802
698.585938	88.975464
697.394531	643.779907
696.203125	-14.159651
695.010742	-160.225510
693.818359	127.709755
692.625977	151.327301
691.432617	151.752548
690.240234	596.387573
689.046875	-4.651208
687.852539	35.348606
686.659180	473.179810
685.464844	127.724396
684.270508	332.836517
683.076172	230.189529
681.880859	-98.489807
680.685547	202.527771
679.490234	543.103088
678.294922	285.495392
677.098633	387.431427
675.902344	539.437317
674.706055	214.928604
673.508789	76.381920
672.312500	-16.151726
671.115234	294.263885
669.916992	449.950470
668.719727	98.404366
667.521484	583.686768
666.323242	25.581675
665.125000	-261.159485
663.925781	426.002380
662.726563	389.366882
661.527344	486.115173
660.328125	49.271999
659.127930	127.181145
657.927734	196.696930
656.727539	-54.585510
655.526367	168.911926
654.326172	304.904266
653.125000	578.124512
651.922852	201.917831
650.721680	248.233521
649.519531	329.812408
648.317383	259.532196
647.115234	376.378571
645.912109	216.648453
644.708984	229.461609
643.505859	223.553726
642.302734	313.191711
641.098633	568.860046
639.894531	670.764343
638.690430	234.960526
637.485352	54.558155
636.281250	326.638855
635.076172	517.623535
633.870117	69.654091
632.665039	463.827667
631.458984	602.776184
630.252930	202.744125
629.046875	225.638931
627.839844	-342.000061
626.632813	126.298050
625.425781	20.753202
624.217773	472.162628
623.010742	8.482260
621.802734	-78.374275
620.594727	29.305914
619.385742	-72.031403
618.176758	66.592209
616.967773	217.584106
615.758789	300.296967
614.548828	17.098562
613.338867	54.342121
612.128906	-81.963455
610.918945	510.940704
609.708008	85.477188
608.497070	384.889679
607.286133	-9.359875
606.075195	91.878014
604.863281	67.182327
603.651367	-367.984741
602.439453	339.627808
601.226563	523.169373
600.013672	104.711418
598.800781	63.629856
597.587891	337.870972
596.374023	395.646851
595.160156	455.497406
593.946289	220.876694
592.732422	153.160629
591.517578	58.694302
590.302734	-4.826399
589.087891	59.279110
587.872070	-16.534571
586.656250	646.014221
585.440430	191.863785
584.224609	430.702515
583.007813	517.344604
581.791016	347.141693
580.574219	-112.600708
579.357422	99.516670
578.139648	358.753510
576.921875	-266.890350
575.704102	56.031174
574.485352	177.715454
573.266602	307.591766
572.047852	320.551514
570.829102	546.829834
569.609375	141.522659
568.389648	527.668457
567.169922	407.510101
565.950195	498.493591
564.729492	165.402695
563.508789	342.478607
562.288086	386.432953
561.066406	211.330902
559.845703	294.294128
558.623047	233.938980
557.401367	276.001953
556.178711	367.152161
554.957031	123.010643
553.733398	-92.453804
552.510742	182.853714
551.287109	-14.006438
550.063477	449.198181
548.839844	289.257233
547.615234	111.010109
546.391602	-52.743652
545.166016	44.825699
543.941406	-128.969849
542.715820	-267.990814
541.491211	-168.149185
540.264648	111.088776
539.039063	-172.465912
537.812500	-392.680939
536.585938	43.573643
535.359375	-58.264172
534.131836	-268.018250
532.904297	125.300461
531.676758	-243.088806
530.449219	-368.974640
529.220703	-122.282166
527.992188	-423.061737
526.763672	-90.867592
525.534180	273.750397
524.305664	-563.591003
523.076172	-644.171570
521.845703	11.196895
520.616211	-28.666235
519.385742	69.678474
518.155273	-134.632538
516.923828	-330.703278
515.693359	-77.793175
514.461914	39.014450
513.229492	-509.951599
511.998047	-425.412231
510.765625	54.737236
509.533203	-453.062683
508.299805	-198.102921
507.067383	-125.597260
505.833984	-148.362183
504.600586	-440.574738
503.366211	116.333870
502.131836	128.162994
500.897461	360.827087
499.663086	16.396822
498.427734	-406.792938
497.193359	109.440948
495.957031	160.032181
494.721680	-139.249023
493.485352	295.837402
492.249023	136.316605
491.012695	-520.389160
489.776367	80.501801
488.539063	624.590698
487.301758	328.050690
486.063477	189.241074
484.826172	-290.664642
483.587891	122.098526
482.348633	336.898529
481.110352	224.806702
479.871094	68.424637
478.631836	-533.614136
477.392578	-13.949833
476.152344	269.621399
474.912109	59.256222
473.671875	-175.099564
472.431641	108.601379
471.190430	-145.663254
469.949219	240.778473
468.708008	81.427071
467.465820	137.619934
466.223633	373.028717
464.981445	962.614929
463.739258	354.933777
462.496094	-182.020645
461.252930	373.360504
460.009766	218.859024
458.765625	179.063141
457.522461	338.392090
456.277344	-207.593460
455.033203	683.133057
453.788086	318.279236
452.543945	540.060486
451.297852	231.780914
450.052734	-98.291901
448.806641	892.206848
447.560547	582.369385
446.314453	413.180786
445.067383	-62.675613
443.820313	217.618668
442.573242	277.423828
441.325195	425.439178
440.078125	-15.481296
438.830078	22.599459
437.581055	180.893616
436.333008	-491.636108
435.083984	-24.786242
433.834961	13.690611
432.584961	390.385406
431.335938	651.049072
430.085938	491.675110
428.834961	-25.461525
427.584961	149.490967
426.333984	-35.308998
425.083008	-58.036507
423.831055	792.361328
422.580078	-374.764435
421.328125	-95.527794
420.075195	541.049500
418.823242	195.481781
417.570313	141.515396
416.317383	309.169891
415.064453	-117.529907
413.810547	223.852997
412.556641	-204.388687
411.302734	-187.776901
410.047852	285.321167
408.792969	-321.583313
407.538086	34.104969
406.283203	134.856430
405.027344	-204.375092
403.771484	129.569580
402.515625	67.450027
401.258789	443.251862
400.002930	124.774986
398.745117	96.918594
397.488281	488.865356
396.230469	383.734161
394.972656	807.534973
393.714844	502.019897
392.457031	264.355011
391.198242	434.136932
389.939453	163.156479
388.679688	438.432495
387.420898	195.723175
386.161133	421.626770
384.901367	822.222778
383.640625	66.296463
382.379883	155.770859
381.119141	-46.078152
379.858398	507.650421
378.596680	397.352234
377.334961	645.957520
376.073242	809.476868
374.810547	676.001831
373.548828	174.513855
372.285156	471.236237
371.022461	-45.407932
369.758789	556.419373
368.495117	-92.157265
367.231445	219.099701
365.967773	289.193359
364.703125	509.725159
363.438477	471.444214
362.172852	204.147888
360.908203	142.736069
359.642578	152.683212
358.375977	-26.748726
357.110352	426.018768
355.843750	389.258514
354.577148	344.882629
353.310547	261.332336
352.042969	298.399414
350.775391	294.307983
349.507813	288.522949
348.239258	633.915039
346.970703	364.489197
345.702148	477.772949
344.433594	565.684509
343.164063	234.299088
341.894531	88.472427
340.625000	-261.728607
339.354492	622.670532
338.083984	113.712624
336.813477	-109.410309
335.542969	482.259521
334.271484	271.596466
333.000000	-17.271580
331.728516	584.800842
330.456055	558.048523
329.183594	-273.932495
327.911133	185.440948
326.637695	458.381348
325.365234	63.995090
324.091797	-168.891251
322.817383	195.337982
321.543945	-176.009308
320.269531	-427.159180
318.994141	-128.628525
317.719727	319.224792
316.444336	-395.291840
315.168945	357.039948
313.893555	317.788574
312.617188	-251.969757
311.340820	-176.618973
310.064453	328.026733
308.787109	-471.072327
307.509766	-611.652466
306.232422	138.730194
304.955078	14.667874
303.676758	-478.580353
302.398438	-18.705084
301.120117	142.300247
299.840820	274.399231
298.561523	19.978428
297.282227	-104.845955
296.002930	226.073593
294.722656	-104.734909
293.442383	-231.784637
292.162109	127.869003
290.880859	528.880554
289.599609	545.868652
288.318359	-21.846962
287.036133	599.077393
285.753906	255.048203
284.471680	442.057434
283.189453	243.651733
281.906250	256.387817
280.623047	121.670700
279.339844	622.640991
278.056641	-147.646561
276.772461	227.874847
275.487305	45.206902
274.203125	353.708313
272.917969	131.568939
271.632813	394.565796
270.347656	96.089951
269.061523	-207.405441
267.775391	-80.449425
266.489258	142.403992
265.203125	284.264893
263.916016	-350.262695
262.628906	199.040283
261.340820	-256.994324
260.053711	-292.737854
258.765625	-481.018951
257.477539	88.340294
256.188477	-245.825638
254.899414	97.878853
253.610352	-73.576271
252.321289	-339.135040
251.031250	-264.546234
249.741211	134.474121
248.450195	1.373969
247.160156	202.348282
245.869141	324.706329
244.578125	-32.270290
243.286133	138.314499
241.994141	211.030075
240.702148	394.901520
239.410156	202.399277
238.117188	446.070801
236.824219	158.850006
235.531250	371.449646
234.237305	793.645935
232.943359	103.659920
231.649414	1252.118408
230.355469	765.179382
229.060547	627.036316
227.765625	488.047974
226.469727	421.565552
225.174805	221.064850
223.878906	170.262894
222.582031	39.546761
221.286133	-155.620239
219.989258	47.538342
218.692383	-280.288269
